Test unit;CS01;
Reference;Senaldi et al. (2018);
top_displacement;horizontal_force;drift
[mm];[kN];[%]
0;0;0
0.000103034;0.402011454;0.00000572413
0.000323153;0.410610908;0.0000179529
0.000597168;0.424199668;0.000033176
0.001007293;0.443102242;0.0000559607
0.001518483;0.472510752;0.0000843602
0.002179697;0.507476457;0.000121094
0.003056513;0.542726105;0.000169806
0.004116591;0.58389802;0.000228699
0.00533879;0.632736428;0.000296599
0.006713274;0.686280198;0.00037296
0.008273281;0.742744538;0.000459627
0.010049324;0.807605514;0.000558296
0.012024775;0.878185938;0.000668043
0.014148013;0.954323556;0.000786001
0.016456319;1.033016673;0.00091424
0.018975728;1.116090644;0.001054207
0.021661781;1.205654768;0.001203432
0.024582314;1.298382842;0.001365684
0.027671718;1.393220217;0.001537318
0.030930007;1.489558439;0.001718334
0.034263297;1.586707931;0.001903517
0.037638818;1.684141366;0.002091045
0.041138749;1.781209731;0.002285486
0.044662035;1.877426263;0.002481224
0.048208694;1.969424194;0.002678261
0.051774221;2.060286349;0.002876346
0.055283606;2.152608788;0.003071311
0.058734145;2.243876578;0.003263008
0.062186936;2.334089717;0.00345483
0.065681939;2.42328877;0.003648997
0.069183668;2.511392609;0.003843537
0.072706522;2.59823898;0.004039251
0.07628326;2.684152392;0.004237959
0.079956114;2.769132844;0.004442006
0.083730004;2.856100906;0.004651667
0.087548334;2.94286615;0.004863796
0.091483921;3.024804343;0.00508244
0.095447834;3.109581977;0.005302657
0.099599515;3.195698206;0.005533306
0.103898954;3.283193592;0.005772164
0.108435587;3.371419121;0.006024199
0.113154998;3.460415355;0.006286389
0.118069445;3.556266814;0.006559414
0.123131663;3.65629631;0.006840648
0.128453888;3.756447496;0.007136327
0.134010557;3.859397561;0.007445031
0.139797251;3.96802651;0.007766514
0.145888954;4.079210957;0.008104942
0.152170644;4.192423577;0.008453925
0.158600092;4.307299299;0.008811116
0.165205658;4.422945727;0.009178092
0.171970681;4.539930748;0.009553927
0.178857936;4.658132674;0.009936552
0.185841272;4.77657798;0.010324515
0.192935198;4.897659911;0.010718622
0.200139694;5.019958746;0.011118872
0.207393019;5.142703779;0.011521834
0.214735223;5.259769927;0.011929735
0.222025794;5.376146496;0.012334766
0.229325803;5.492360812;0.012740322
0.236585824;5.607844985;0.013143657
0.243862532;5.724830006;0.013547918
0.251098629;5.832485431;0.013949924
0.258379115;5.934989297;0.014354395
0.265568483;6.039318518;0.014753805
0.272642815;6.140767733;0.015146823
0.279653877;6.236781444;0.015536326
0.286477115;6.331010363;0.015915395
0.293204267;6.421872515;0.016289126
0.299825847;6.508597194;0.016656992
0.306257428;6.59353708;0.017014302
0.312456779;6.672798082;0.01735871
0.318426157;6.745406677;0.017690342
0.32411888;6.811443991;0.018006604
0.329487708;6.86665086;0.018304873
0.334520992;6.91329884;0.0185845
0.33918659;6.953537792;0.018843699
0.343429933;6.987611099;0.019079441
0.347262718;7.01365284;0.019292373
0.35060051;7.029715971;0.019477806
0.353516053;7.036814576;0.019639781
0.355936601;7.033894007;0.019774256
0.357834423;7.025213426;0.01987969
0.359202289;7.00837959;0.019955683
0.360084605;6.981283198;0.0200047
0.360507578;6.945222282;0.020028199
0.360416553;6.899791206;0.020023142
0.359868337;6.844016448;0.019992685
0.358844041;6.78085914;0.01993578
0.357322568;6.710846607;0.019851254
0.355430501;6.633248706;0.019746139
0.353158424;6.551756714;0.019619912
0.350527457;6.468439366;0.019473748
0.347591493;6.382363703;0.019310639
0.344394921;6.295557897;0.019133051
0.340966114;6.208346457;0.018942562
0.337330593;6.120364311;0.018740589
0.333535659;6.032017094;0.018529759
0.329621299;5.942331282;0.018312294
0.325606425;5.855890547;0.018089246
0.321403752;5.769125305;0.017855764
0.317078825;5.678709351;0.01761549
0.312700014;5.589307483;0.017372223
0.308234566;5.500676321;0.017124143
0.303665761;5.410828255;0.01687032
0.298963015;5.324225265;0.016609056
0.294149694;5.234458326;0.01634165
0.289319684;5.141486874;0.016073316
0.284386302;5.04827204;0.015799239
0.279429589;4.955341151;0.015523866
0.274317813;4.861964064;0.015239878
0.26909825;4.767248383;0.014949903
0.26377311;4.670261147;0.014654062
0.258340213;4.572827713;0.014352234
0.252752877;4.477706397;0.014041826
0.247019965;4.38011071;0.013723331
0.241179289;4.281582062;0.013398849
0.235200303;4.181998765;0.013066683
0.229075702;4.084038007;0.012726428
0.222873283;3.982913298;0.012381849
0.216595898;3.882234787;0.012033105
0.210271881;3.783057125;0.011681771
0.20389395;3.682662558;0.011327442
0.197473781;3.582511373;0.010970766
0.19103252;3.483090329;0.010612918
0.184631243;3.38103266;0.010257291
0.178328901;3.282950211;0.009907161
0.171937696;3.188802416;0.009552094
0.165577038;3.095141384;0.009198724
0.159176362;3.001520914;0.008843131
0.152815239;2.903844098;0.008489735
0.14650798;2.806451227;0.008139332
0.140224059;2.709382863;0.007790226
0.133951797;2.612355063;0.007441766
0.127772908;2.510946408;0.007098495
0.121636265;2.407590708;0.00675757
0.115558434;2.306384871;0.006419913
0.109579395;2.209803268;0.006087744
0.103625959;2.109854898;0.005756998
0.09769142;2.006783141;0.005427301
0.091832323;1.906915898;0.005101796
0.085968692;1.81191627;0.004776038
0.080076738;1.717443967;0.004448708
0.074217559;1.622768847;0.004123198
0.068377252;1.528823869;0.003798736
0.062485254;1.435081708;0.003471403
0.056424342;1.341015039;0.003134686
0.050353984;1.247151188;0.002797444
0.04424138;1.152881702;0.002457854
0.038107665;1.05877447;0.002117093
0.031953366;0.968399076;0.001775187
0.025735703;0.877658611;0.001429761
0.019473568;0.786877582;0.001081865
0.013220853;0.695893735;0.000734492
0.006902612;0.603409041;0.000383478
0.000549316;0.515508017;0.0000305176
-0.005909977;0.42241487;-0.000328332
-0.012451889;0.321452412;-0.000691772
-0.019019403;0.221706857;-0.001056633
-0.025680776;0.125125252;-0.00142671
-0.032441329;0.02120166;-0.001802296
-0.039270192;-0.086697152;-0.002181677
-0.046143538;-0.19467709;-0.00256353
-0.053155243;-0.302575901;-0.002953069
-0.060305337;-0.407919215;-0.003350296
-0.067525919;-0.515736899;-0.00375144
-0.074725414;-0.621080213;-0.004151412
-0.081973999;-0.723016196;-0.004554111
-0.089316473;-0.825236123;-0.004962026
-0.096731688;-0.92757774;-0.005373983
-0.104205434;-1.025700758;-0.005789191
-0.111730844;-1.124026592;-0.006207269
-0.11927739;-1.222676935;-0.006626522
-0.126927218;-1.321408404;-0.007051512
-0.134663736;-1.417503249;-0.007481319
-0.142515274;-1.516396972;-0.007917515
-0.150425245;-1.612897452;-0.008356958
-0.158435841;-1.705909473;-0.008801991
-0.166495785;-1.802044882;-0.009249766
-0.174560318;-1.896152117;-0.009697795
-0.182638483;-1.985351174;-0.010146582
-0.190751944;-2.079093339;-0.01059733
-0.198905345;-2.173525082;-0.011050297
-0.207047061;-2.268037953;-0.011502615
-0.215151383;-2.368108018;-0.011952855
-0.223227456;-2.463837793;-0.012401525
-0.23133175;-2.564597438;-0.012851764
-0.239464525;-2.672739633;-0.013303585
-0.247522246;-2.780881828;-0.013751236
-0.255561149;-2.88910515;-0.014197842
-0.26359557;-3.001060311;-0.014644198
-0.271585439;-3.112853219;-0.01508808
-0.279624631;-3.22468669;-0.015534702
-0.287684906;-3.336155089;-0.015982495
-0.295700547;-3.443323762;-0.016427808
-0.303638825;-3.550208491;-0.016868824
-0.311511463;-3.656930965;-0.017306192
-0.31930905;-3.76353175;-0.017739392
-0.327064295;-3.86364238;-0.018170239
-0.334805561;-3.966146254;-0.018600309
-0.342561046;-4.070110414;-0.019031169
-0.35027177;-4.169896536;-0.019459543
-0.357951968;-4.269885477;-0.01988622
-0.365601669;-4.370158361;-0.020311204
-0.373255968;-4.467916311;-0.020736443
-0.380940791;-4.56835145;-0.021163377
-0.388597406;-4.666636725;-0.021588745
-0.39621867;-4.761758051;-0.022012148
-0.403914974;-4.857528392;-0.022439721
-0.411590193;-4.953663804;-0.022866122
-0.419305338;-5.054098944;-0.023294741
-0.427065008;-5.155142535;-0.023725834
-0.434805861;-5.256713452;-0.024155881
-0.4424646;-5.358933384;-0.024581367
-0.450142249;-5.467075583;-0.025007903
-0.457810469;-5.578219478;-0.025433915
-0.46549742;-5.691229293;-0.025860968
-0.473191412;-5.802981641;-0.026288412
-0.480913671;-5.920007239;-0.026717426
-0.488654682;-6.039912843;-0.027147482
-0.496407374;-6.159980702;-0.027578187
-0.504192938;-6.278304331;-0.028010719
-0.51197149;-6.393707391;-0.028442861
-0.519764168;-6.505216359;-0.028875787
-0.527526386;-6.613601939;-0.029307021
-0.535222904;-6.723610059;-0.029734606
-0.542879583;-6.829683522;-0.030159977
-0.550468289;-6.929347958;-0.030581572
-0.557939693;-7.026254078;-0.03099665
-0.565314934;-7.119428359;-0.031406385
-0.57250244;-7.204327694;-0.031805691
-0.579499929;-7.283872651;-0.03219444
-0.586265188;-7.35700858;-0.032570288
-0.592849846;-7.423329847;-0.032936103
-0.599164696;-7.481092223;-0.033286928
-0.605216824;-7.528632606;-0.033623157
-0.610935872;-7.566316066;-0.033940882
-0.616366428;-7.59410204;-0.034242579
-0.621454454;-7.611787711;-0.034525247
-0.626113218;-7.617547724;-0.034784068
-0.630352123;-7.613369686;-0.035019562
-0.634168819;-7.598766838;-0.035231601
-0.637589043;-7.578971867;-0.035421613
-0.640596331;-7.555931818;-0.035588685
-0.64315792;-7.524657386;-0.035730996
-0.645290252;-7.480402644;-0.035849458
-0.646988534;-7.432578317;-0.035943807
-0.648236387;-7.382523;-0.036013133
-0.649052623;-7.324152172;-0.036058479
-0.649434891;-7.258926119;-0.036079716
-0.649425449;-7.188183434;-0.036079192
-0.649075841;-7.115169195;-0.036059769
-0.648411911;-7.036313817;-0.036022884
-0.647429004;-6.950968284;-0.035968278
-0.646171635;-6.863554015;-0.035898424
-0.644682045;-6.77443608;-0.035815669
-0.642997779;-6.680247712;-0.035722099
-0.641055432;-6.58776301;-0.035614191
-0.638901961;-6.494507602;-0.035494553
-0.636619466;-6.400643742;-0.035367748
-0.634135236;-6.306455375;-0.035229735
-0.631446895;-6.214497998;-0.035080383
-0.628528679;-6.120147377;-0.03491826
-0.625364229;-6.022632806;-0.034742457
-0.622030878;-5.926172885;-0.034557271
-0.618538009;-5.830361979;-0.034363223
-0.614885701;-5.731103179;-0.034160317
-0.611109065;-5.626692819;-0.033950504
-0.607165873;-5.522282459;-0.033731437
-0.603159361;-5.417466465;-0.033508853
-0.599087165;-5.311839201;-0.03328262
-0.594881274;-5.20061418;-0.03304896
-0.590565119;-5.092958743;-0.032809173
-0.586148058;-4.99155008;-0.032563781
-0.581573819;-4.888600006;-0.032309657
-0.576779079;-4.784149084;-0.032043282
-0.5718553;-4.685944935;-0.031769739
-0.566828316;-4.589485016;-0.031490462
-0.561716883;-4.49201101;-0.031206493
-0.556521019;-4.393928552;-0.030917834
-0.551261822;-4.295359333;-0.030625657
-0.545981529;-4.198939977;-0.030332307
-0.540715283;-4.099883996;-0.030039738
-0.535477123;-3.996649979;-0.029748729
-0.530302302;-3.893618779;-0.029461239
-0.525221318;-3.790871523;-0.029178962
-0.520198905;-3.684919754;-0.028899939
-0.515237493;-3.582578133;-0.028624305
-0.510355854;-3.481128909;-0.028353103
-0.505455442;-3.380531518;-0.028080858
-0.500515146;-3.280826523;-0.027806397
-0.495584229;-3.184366605;-0.027532457
-0.490676776;-3.086486966;-0.027259821
-0.485767001;-2.985889574;-0.026987056
-0.480960456;-2.886711904;-0.026720025
-0.476278248;-2.788386067;-0.026459903
-0.471621868;-2.687383041;-0.026201215
-0.466965488;-2.582039725;-0.025942527
-0.462309108;-2.477548241;-0.025683839
-0.457591726;-2.373584083;-0.025421763
-0.452874344;-2.269863305;-0.025159686
-0.448095955;-2.161639984;-0.02489422
-0.443268359;-2.059217237;-0.02462602
-0.438405699;-1.965515636;-0.024355872
-0.43340696;-1.872381923;-0.024078164
-0.428220546;-1.779207647;-0.02379003
-0.422935745;-1.693943247;-0.02349643
-0.417557103;-1.610544765;-0.023197617
-0.412096352;-1.526618959;-0.022894242
-0.406591059;-1.442449772;-0.022588392
-0.401013006;-1.357428753;-0.0222785
-0.395390429;-1.274476471;-0.021966135
-0.389678594;-1.187873477;-0.021648811
-0.383898615;-1.096321741;-0.021327701
-0.377973161;-1.004202116;-0.020998509
-0.371963281;-0.911392913;-0.020664627
-0.365868742;-0.814040602;-0.020326041
-0.3597625;-0.718959845;-0.019986806
-0.353560107;-0.623351763;-0.019642228
-0.347343705;-0.527784244;-0.019296872
-0.341120181;-0.431729965;-0.018951121
-0.334894348;-0.337947239;-0.018605242
-0.328616941;-0.241649578;-0.018256497
-0.322273765;-0.140443739;-0.017904098
-0.315928284;-0.039035082;-0.017551571
-0.309592195;0.062211321;-0.017199566
-0.303232553;0.167595197;-0.016846253
-0.296840101;0.276670348;-0.016491117
-0.290405425;0.385218173;-0.016133635
-0.28390744;0.493563182;-0.015772636
-0.277439942;0.60190819;-0.01541333
-0.270941957;0.71272757;-0.015052331
-0.26442079;0.816204963;-0.014690044
-0.257871575;0.913070511;-0.014326199
-0.251362291;1.010017187;-0.013964572
-0.24484361;1.106193156;-0.013602423
-0.238318274;1.194418687;-0.013239904
-0.231717933;1.280129283;-0.012873218
-0.225117615;1.365028609;-0.012506534
-0.218453643;1.454633297;-0.012136314
-0.211658398;1.545089818;-0.0117588
-0.204748193;1.633153094;-0.0113749
-0.19781654;1.726205676;-0.010989808
-0.190844898;1.822219391;-0.010602494
-0.183800515;1.919003811;-0.01021114
-0.176690541;2.015950485;-0.009816141
-0.16948667;2.113546174;-0.009415926
-0.162167832;2.21016834;-0.009009324
-0.154795088;2.307236704;-0.008599727
-0.147349611;2.405156901;-0.00818609
-0.139775183;2.50380724;-0.007765288
-0.132085798;2.603066031;-0.0073381
-0.124297752;2.70711131;-0.006905431
-0.116394731;2.815496879;-0.006466374
-0.108322838;2.924612591;-0.006017935
-0.100070387;3.034539571;-0.005559466
-0.091669868;3.149253041;-0.00509277
-0.083147213;3.270132156;-0.00461929
-0.07454014;3.392390429;-0.004141119
-0.065886679;3.506819954;-0.003660371
-0.057214368;3.619910884;-0.003178576
-0.048551497;3.735881821;-0.002697305
-0.03980947;3.843577811;-0.002211637
-0.031032349;3.947176891;-0.001724019
-0.022234115;4.050654281;-0.001235229
-0.013374833;4.154415615;-0.000743046
-0.004492157;4.257893004;-0.000249564
0.004392742;4.358084753;0.000244041
0.013404276;4.457992558;0.000744682
0.022432478;4.560739805;0.001246249
0.03143954;4.662189021;0.001746641
0.040467712;4.763029785;0.002248206
0.049519804;4.867075063;0.0027511
0.058529669;4.968848786;0.003251648
0.067495069;5.06968955;0.003749726
0.076373788;5.170002989;0.004242988
0.085200893;5.269180651;0.004733383
0.093945817;5.36458591;0.005219212
0.102697956;5.459017647;0.005705442
0.111431649;5.55657277;0.006190647
0.120155915;5.653641131;0.006675329
0.128859044;5.749695406;0.007158836
0.137574273;5.849157012;0.007643015
0.146268389;5.948861998;0.008126022
0.15497416;6.047552898;0.008609676
0.163586034;6.144905204;0.009088113
0.172144029;6.240513281;0.009563557
0.180582561;6.337094881;0.010032364
0.188798308;6.431526617;0.010488795
0.196889683;6.519387073;0.010938316
0.204873275;6.603191182;0.011381849
0.212591887;6.68216824;0.01181066
0.220012176;6.751694012;0.012222899
0.22714854;6.815135264;0.012619363
0.233928216;6.87216749;0.012996012
0.240360692;6.921776602;0.013353372
0.246382581;6.963435276;0.013687921
0.252003334;6.997265202;0.014000185
0.257140754;7.022901309;0.014285597
0.261806503;7.039613455;0.014544806
0.265913862;7.047807274;0.014772992
0.269545122;7.046955441;0.014974729
0.272533591;7.036287251;0.015140755
0.274942555;7.016248902;0.015274586
0.276697049;6.986515885;0.015372058
0.277848808;6.947007074;0.015436045
0.278369391;6.897641343;0.015464966
0.278362185;6.841947711;0.015464566
0.27781556;6.778263078;0.015434198
0.276696067;6.703869692;0.015372004
0.274985427;6.623472913;0.015276968
0.272843119;6.538695281;0.015157951
0.270254591;6.446413408;0.015014144
0.267295488;6.350399697;0.014849749
0.264050272;6.25268232;0.01466946
0.260530621;6.154031984;0.014473923
0.256759836;6.054610942;0.014264435
0.252759039;5.951742006;0.014042169
0.248549352;5.848507998;0.013808297
0.244119675;5.749046393;0.013562204
0.23959389;5.649422534;0.013310772
0.234878112;5.550244872;0.013048784
0.230082866;5.456178207;0.012782381
0.225200953;5.362476613;0.012511164
0.220220707;5.269707978;0.012234484
0.215167694;5.178034557;0.011953761
0.210049129;5.087456349;0.011669396
0.204794433;4.994971658;0.011377468
0.199455273;4.903054856;0.011080848
0.194060077;4.814626511;0.010781115
0.188634311;4.726035912;0.010479684
0.183110186;4.639067852;0.010172788
0.177546688;4.555020361;0.009863705
0.171912656;4.469147514;0.009550703
0.166130842;4.381571001;0.009229491
0.160201256;4.29237195;0.00890007
0.154215563;4.201509797;0.008567531
0.148108177;4.114338919;0.008228232
0.14191189;4.026721843;0.007883994
0.135665649;3.930383622;0.007536981
0.129344391;3.832341736;0.007185799
0.122957548;3.733407454;0.006830975
0.116532882;3.629605556;0.006474049
0.110004886;3.525560278;0.006111383
0.103481359;3.421231055;0.005748964
0.096922804;3.316942396;0.0053846
0.090350287;3.216385575;0.00501946
0.083798882;3.11590988;0.004655493
0.077247455;3.015920948;0.004291525
0.070682127;2.916134832;0.003926785
0.064149598;2.816429843;0.003563867
0.057621528;2.714858935;0.003201196
0.051112307;2.61413986;0.002839573
0.044537558;2.514840505;0.002474309
0.038023878;2.415500587;0.002112438
0.03151735;2.319000111;0.001750964
0.024886394;2.222864707;0.001382577
0.018273875;2.122672956;0.001015215
0.011694114;2.022278387;0.000649673
0.005117084;1.926061856;0.000284282
-0.001542145;1.830169831;-0.0000856747
-0.008253064;1.737117249;-0.000458504
-0.015051052;1.640576209;-0.00083617
-0.02181393;1.539694878;-0.001211885
-0.02863296;1.438935238;-0.00159072
-0.035473148;1.337688836;-0.00197073
-0.042372214;1.232791722;-0.002354012
-0.049346316;1.127975735;-0.002741462
-0.056402606;1.022267353;-0.003133478
-0.063512836;0.916518406;-0.003528491
-0.070787109;0.814014537;-0.003932617
-0.078178621;0.710577708;-0.004343257
-0.085725087;0.606491863;-0.004762505
-0.093316039;0.502040947;-0.005184224
-0.10101972;0.396657071;-0.005612207
-0.108751701;0.288312062;-0.006041761
-0.116462544;0.180291561;-0.006470141
-0.124220104;0.073082329;-0.006901117
-0.132092657;-0.034654229;-0.007338481
-0.140028566;-0.14255304;-0.007779365
-0.147941035;-0.250411288;-0.008218946
-0.15582071;-0.360946724;-0.008656706
-0.163676624;-0.467790886;-0.009093146
-0.171569867;-0.570497574;-0.009531659
-0.179442022;-0.672676938;-0.009969001
-0.18730021;-0.774410103;-0.010405567
-0.195158571;-0.880808067;-0.010842143
-0.202941906;-0.989680403;-0.01127455
-0.210621967;-1.09705189;-0.01170122
-0.218217629;-1.203855489;-0.012123202
-0.225684548;-1.317230369;-0.01253803
-0.232982567;-1.431335392;-0.012943476
-0.240106891;-1.542479282;-0.013339272
-0.247120915;-1.64798485;-0.01372894
-0.254019953;-1.749150127;-0.01411222
-0.260822829;-1.851086111;-0.014490157
-0.267505958;-1.949290256;-0.014861442
-0.274090484;-2.041409881;-0.015227249
-0.280506109;-2.131379643;-0.015583673
-0.28677398;-2.219848556;-0.015931888
-0.292950268;-2.30726282;-0.016275015
-0.299035033;-2.393095109;-0.016613057
-0.305011935;-2.476980352;-0.016945107
-0.310883307;-2.559810944;-0.017271295
-0.316700758;-2.642114212;-0.017594487
-0.322447787;-2.722713814;-0.017913766
-0.328079587;-2.797675095;-0.018226644
-0.333725436;-2.866349039;-0.018540302
-0.339359585;-2.93498242;-0.01885331
-0.345043065;-3.00207439;-0.019169059
-0.350681781;-3.065556211;-0.019482321
-0.356334548;-3.124778868;-0.019796364
-0.361999181;-3.187084349;-0.020111066
-0.367631158;-3.256853508;-0.020423953
-0.373244355;-3.328326332;-0.020735797
-0.378859866;-3.397649293;-0.02104777
-0.384557635;-3.474435931;-0.021364313
-0.390304842;-3.559416389;-0.021683602
-0.396115386;-3.645816569;-0.02200641
-0.40199867;-3.73270351;-0.022333259
-0.40791479;-3.819914959;-0.022661933
