Test unit;CS01;
Reference;Senaldi et al. (2018);
top_displacement;horizontal_force;drift
[mm];[kN];[%]
Displacement,Force,Drift
-88.450371,-9.712161,-4.913910
-88.446788,-10.208941,-4.913710
-88.434601,-10.672257,-4.913033
-88.383487,-10.859202,-4.910194
-88.283304,-11.024961,-4.904628
-88.140165,-11.179774,-4.896676
-87.959592,-11.313960,-4.886644
-87.747172,-11.424505,-4.874843
-87.508670,-11.515626,-4.861593
-87.249904,-11.588775,-4.847217
-86.976672,-11.643622,-4.832037
-86.694640,-11.690576,-4.816369
-86.410037,-11.737179,-4.800558
-86.125618,-11.784962,-4.784757
-85.841304,-11.832819,-4.768961
-85.556700,-11.887114,-4.753150
-85.272107,-11.938051,-4.737339
-84.987660,-11.984270,-4.721537
-84.703177,-12.030344,-4.705732
-84.418594,-12.076162,-4.689922
-84.134181,-12.120703,-4.674121
-83.850273,-12.145117,-4.658349
-83.566700,-12.156073,-4.642594
-83.283277,-12.165667,-4.626849
-82.999837,-12.174800,-4.611102
-82.716636,-12.170286,-4.595369
-82.433522,-12.175305,-4.579640
-82.150214,-12.188439,-4.563901
-81.866683,-12.202599,-4.548149
-81.583130,-12.217778,-4.532396
-81.299315,-12.234331,-4.516629
-81.015136,-12.265648,-4.500841
-80.730629,-12.311664,-4.485035
-80.445947,-12.361400,-4.469219
-80.161113,-12.401896,-4.453395
-79.876085,-12.451803,-4.437560
-79.590856,-12.496214,-4.421714
-79.305334,-12.536827,-4.405852
-79.019668,-12.582195,-4.389982
-78.733879,-12.627297,-4.374104
-78.447753,-12.672029,-4.358208
-78.161063,-12.720988,-4.342281
-77.874009,-12.756265,-4.326334
-77.586590,-12.785515,-4.310366
-77.298803,-12.836112,-4.294378
-77.010657,-12.885772,-4.278370
-76.722162,-12.935993,-4.262342
-76.433931,-12.985588,-4.246329
-76.145965,-13.025421,-4.230331
-75.857892,-13.063349,-4.214327
-75.570183,-13.100035,-4.198343
-75.283100,-13.123510,-4.182394
-74.996426,-13.158368,-4.166468
-74.709895,-13.195357,-4.150550
-74.423707,-13.209441,-4.134650
-74.137978,-13.220584,-4.118777
-73.852889,-13.228535,-4.102938
-73.567745,-13.230397,-4.087097
-73.282439,-13.242531,-4.071247
-72.997400,-13.254762,-4.055411
-72.712407,-13.266515,-4.039578
-72.427566,-13.284355,-4.023754
-72.142754,-13.296327,-4.007931
-71.858280,-13.307921,-3.992127
-71.573907,-13.331749,-3.976328
-71.289426,-13.357842,-3.960524
-71.004664,-13.387279,-3.944704
-70.760891,-12.395051,-3.931161
-70.756093,-12.925916,-3.930894
-70.749075,-13.571977,-3.930504
-70.716728,-13.808098,-3.928707
-70.644493,-13.996953,-3.924694
-70.536154,-14.157886,-3.918675
-70.396919,-14.304355,-3.910940
-70.231024,-14.425137,-3.901724
-70.043164,-14.520065,-3.891287
-69.838081,-14.591322,-3.879893
-69.620224,-14.637893,-3.867790
-69.394937,-14.665590,-3.855274
-69.167540,-14.687134,-3.842641
-68.939833,-14.708948,-3.829991
-68.711961,-14.750316,-3.817331
-68.484455,-14.791713,-3.804692
-68.256733,-14.817784,-3.792041
-68.028714,-14.849388,-3.779373
-67.800648,-14.895008,-3.766703
-67.572697,-14.936851,-3.754039
-67.344882,-14.975146,-3.741382
-67.117067,-15.014684,-3.728726
-66.889452,-15.054016,-3.716081
-66.661851,-15.094113,-3.703436
-66.434277,-15.116838,-3.690793
-66.206517,-15.139830,-3.678140
-65.978495,-15.170918,-3.665472
-65.750755,-15.190819,-3.652820
-65.522984,-15.186021,-3.640166
-65.294791,-15.188093,-3.627488
-65.066223,-15.196447,-3.614790
-64.837585,-15.205038,-3.602088
-64.608563,-15.212676,-3.589365
-64.379710,-15.214845,-3.576651
-64.150537,-15.220528,-3.563919
-63.921091,-15.229730,-3.551172
-63.691833,-15.247048,-3.538435
-63.462389,-15.270701,-3.525688
-63.232988,-15.306045,-3.512944
-63.003775,-15.338738,-3.500210
-62.774731,-15.377912,-3.487485
-62.545604,-15.416647,-3.474756
-62.316829,-15.456504,-3.462046
-62.087735,-15.507663,-3.449319
-61.858725,-15.574284,-3.436596
-61.630054,-15.632658,-3.423892
-61.401111,-15.675207,-3.411173
-61.172251,-15.717433,-3.398458
-60.943190,-15.759476,-3.385733
-60.713975,-15.801576,-3.372999
-60.484877,-15.826148,-3.360271
-60.255864,-15.849995,-3.347548
-60.026699,-15.873746,-3.334817
-59.797802,-15.881113,-3.322100
-59.569068,-15.864539,-3.309393
-59.340254,-15.859148,-3.296681
-59.111985,-15.859498,-3.283999
-58.883564,-15.859215,-3.271309
-58.655190,-15.860020,-3.258622
-58.426936,-15.859558,-3.245941
-58.198781,-15.866378,-3.233266
-57.970579,-15.879639,-3.220588
-57.742267,-15.901597,-3.207904
-57.513838,-15.933392,-3.195213
-57.285311,-15.977784,-3.182517
-57.056627,-16.017882,-3.169813
-56.827526,-16.068887,-3.157085
-56.598372,-16.133798,-3.144354
-56.369272,-16.199416,-3.131626
-56.140193,-16.264747,-3.118900
-55.910826,-16.344306,-3.106157
-55.681592,-16.413336,-3.093422
-55.452479,-16.464047,-3.080693
-55.223451,-16.512309,-3.067970
-54.994403,-16.560630,-3.055245
-54.765563,-16.606109,-3.042531
-54.537009,-16.628634,-3.029834
-54.308685,-16.624503,-3.017149
-54.080299,-16.617578,-3.004461
-53.852003,-16.599403,-2.991778
-53.623914,-16.555951,-2.979106
-53.395678,-16.524523,-2.966427
-53.167326,-16.508683,-2.953740
-53.083476,-15.587213,-2.949082
-53.075991,-15.256345,-2.948666
-53.066245,-16.331774,-2.948125
-53.047188,-16.582895,-2.947066
-52.997501,-16.793867,-2.944306
-52.920334,-16.970103,-2.940019
-52.819210,-17.114436,-2.934401
-52.697121,-17.239577,-2.927618
-52.556942,-17.332185,-2.919830
-52.402515,-17.399956,-2.911251
-52.238042,-17.438786,-2.902113
-52.067617,-17.449634,-2.892645
-51.895675,-17.445864,-2.883093
-51.723833,-17.447908,-2.873546
-51.552178,-17.458311,-2.864010
-51.380673,-17.458664,-2.854482
-51.209168,-17.456715,-2.844954
-51.037939,-17.454987,-2.835441
-50.867278,-17.463776,-2.825960
-50.696976,-17.471774,-2.816499
-50.526845,-17.480141,-2.807047
-50.356759,-17.474981,-2.797598
-50.186543,-17.470191,-2.788141
-50.016624,-17.463959,-2.778701
-49.846602,-17.442761,-2.769256
-49.676534,-17.437382,-2.759807
-49.506318,-17.435960,-2.750351
-49.335848,-17.431850,-2.740880
-49.165229,-17.423887,-2.731402
-48.994459,-17.413476,-2.721914
-48.823585,-17.401506,-2.712421
-48.652580,-17.408126,-2.702921
-48.481600,-17.424244,-2.693422
-48.310304,-17.439103,-2.683906
-48.138943,-17.461429,-2.674386
-47.967752,-17.476425,-2.664875
-47.796794,-17.490897,-2.655377
-47.625922,-17.505882,-2.645885
-47.454907,-17.526168,-2.636384
-47.283872,-17.548787,-2.626882
-47.112731,-17.571687,-2.617374
-46.941606,-17.581686,-2.607867
-46.770538,-17.576303,-2.598363
-46.599442,-17.569221,-2.588858
-46.428324,-17.564060,-2.579351
-46.256993,-17.556821,-2.569833
-46.085364,-17.549320,-2.560298
-45.913639,-17.530785,-2.550758
-45.742097,-17.501179,-2.541228
-45.570618,-17.470221,-2.531701
-45.399330,-17.441149,-2.522185
-45.227899,-17.423471,-2.512661
-45.056455,-17.422141,-2.503136
-44.885168,-17.425730,-2.493620
-44.714049,-17.429691,-2.484114
-44.542951,-17.436247,-2.474608
-44.371936,-17.440448,-2.465108
-44.200993,-17.454677,-2.455611
-44.029971,-17.483400,-2.446109
-43.858681,-17.519212,-2.436593
-43.687081,-17.542532,-2.427060
-43.515714,-17.560232,-2.417540
-43.344241,-17.571276,-2.408013
-43.172639,-17.580757,-2.398480
-43.000865,-17.603345,-2.388937
-42.829151,-17.626074,-2.379397
-42.657567,-17.650645,-2.369865
-42.485935,-17.687307,-2.360330
-42.314183,-17.721644,-2.350788
-42.142628,-17.742205,-2.341257
-41.971199,-17.783800,-2.331733
-41.799831,-17.825560,-2.322213
-41.628475,-17.857619,-2.312693
-41.457314,-17.880474,-2.303184
-41.286036,-17.878844,-2.293669
-41.114613,-17.875758,-2.284145
-40.943022,-17.871214,-2.274612
-40.771579,-17.846713,-2.265088
-40.600281,-17.804990,-2.255571
-40.429113,-17.770464,-2.246062
-40.257874,-17.726501,-2.236549
-40.086274,-17.684479,-2.227015
-39.914804,-17.655757,-2.217489
-39.742972,-17.642112,-2.207943
-39.571306,-17.638899,-2.198406
-39.399666,-17.637657,-2.188870
-39.228085,-17.634009,-2.179338
-39.056223,-17.635673,-2.169790
-38.884109,-17.650096,-2.160228
-38.711597,-17.673190,-2.150644
-38.539194,-17.688178,-2.141066
-38.366875,-17.701303,-2.131493
-38.194387,-17.709113,-2.121910
-38.022127,-17.708644,-2.112340
-37.849802,-17.719766,-2.102767
-37.677376,-17.729294,-2.093188
-37.505059,-17.741752,-2.083614
-37.333087,-17.763808,-2.074060
-37.161572,-17.783711,-2.064532
-36.990370,-17.786488,-2.055021
-36.819142,-17.798222,-2.045508
-36.648160,-17.813023,-2.036009
-36.477178,-17.826891,-2.026510
-36.306222,-17.840224,-2.017012
-36.135401,-17.834238,-2.007522
-35.964824,-17.831169,-1.998046
-35.794163,-17.826210,-1.988565
-35.623153,-17.807816,-1.979064
-35.451696,-17.789953,-1.969539
-35.375581,-16.064545,-1.965310
-35.364993,-16.035137,-1.964722
-35.347179,-16.311714,-1.963732
-35.309276,-16.559069,-1.961626
-35.253662,-16.753962,-1.958537
-35.182451,-16.923863,-1.954581
-35.097756,-17.067713,-1.949875
-35.001774,-17.164103,-1.944543
-34.896841,-17.233736,-1.938713
-34.786043,-17.285840,-1.932558
-34.672460,-17.296487,-1.926248
-34.558253,-17.305420,-1.919903
-34.444269,-17.310565,-1.913570
-34.330431,-17.306386,-1.907246
-34.216492,-17.326644,-1.900916
-34.102385,-17.344086,-1.894577
-33.988342,-17.355317,-1.888241
-33.874032,-17.379950,-1.881891
-33.759666,-17.399056,-1.875537
-33.645364,-17.410727,-1.869187
-33.531183,-17.443778,-1.862843
-33.417003,-17.473736,-1.856500
-33.302745,-17.504664,-1.850152
-33.188502,-17.543605,-1.843806
-33.074137,-17.554654,-1.837452
-32.959941,-17.560951,-1.831108
-32.845683,-17.575390,-1.824760
-32.731568,-17.576526,-1.818420
-32.617576,-17.564482,-1.812088
-32.503580,-17.556634,-1.805754
-32.389424,-17.533023,-1.799412
-32.275524,-17.506247,-1.793085
-32.161627,-17.475637,-1.786757
-32.047619,-17.438748,-1.780423
-31.933964,-17.430244,-1.774109
-31.820340,-17.423089,-1.767797
-31.706720,-17.408977,-1.761484
-31.593126,-17.413785,-1.755174
-31.479436,-17.440267,-1.748858
-31.365582,-17.454639,-1.742532
-31.252064,-17.478545,-1.736226
-31.138353,-17.502203,-1.729908
-31.024525,-17.524789,-1.723585
-30.910754,-17.563770,-1.717264
-30.796706,-17.583940,-1.710928
-30.682463,-17.592244,-1.704581
-30.568023,-17.596459,-1.698224
-30.453393,-17.588648,-1.691855
-30.338513,-17.567705,-1.685473
-30.223658,-17.556047,-1.679092
-30.108383,-17.535363,-1.672688
-29.993163,-17.502189,-1.666287
-29.877746,-17.473243,-1.659875
-29.762078,-17.422214,-1.653449
-29.646438,-17.380600,-1.647024
-29.530767,-17.355139,-1.640598
-29.415542,-17.338136,-1.634197
-29.300512,-17.322613,-1.627806
-29.185678,-17.317364,-1.621427
-29.070869,-17.314851,-1.615048
-28.956031,-17.307110,-1.608668
-28.841051,-17.316142,-1.602281
-28.726605,-17.319643,-1.595922
-28.612325,-17.330425,-1.589574
-28.497988,-17.332402,-1.583222
-28.383765,-17.325968,-1.576876
-28.269175,-17.317204,-1.570510
-28.154529,-17.297129,-1.564141
-28.039967,-17.261172,-1.557776
-27.925376,-17.219942,-1.551410
-27.811068,-17.196736,-1.545059
-27.696901,-17.166597,-1.538717
-27.582255,-17.139633,-1.532348
-27.467696,-17.118994,-1.525983
-27.353104,-17.093360,-1.519617
-27.238286,-17.067853,-1.513238
-27.123467,-17.043704,-1.506859
-27.008480,-17.031993,-1.500471
-26.893271,-17.042842,-1.494071
-26.777950,-17.056055,-1.487664
-26.662426,-17.052523,-1.481246
-26.546818,-17.058550,-1.474823
-26.526327,-16.096717,-1.473685
-26.525352,-16.110766,-1.473631
-26.512968,-16.313631,-1.472943
-26.485297,-16.488387,-1.471405
-26.443813,-16.641903,-1.469101
-26.390223,-16.763141,-1.466123
-26.326133,-16.847987,-1.462563
-26.253065,-16.917007,-1.458504
-26.173049,-16.964392,-1.454058
-26.089007,-16.984965,-1.449389
-26.003223,-17.003980,-1.444623
-25.917043,-17.022886,-1.439836
-25.830829,-17.036802,-1.435046
-25.744486,-17.067543,-1.430249
-25.658226,-17.095097,-1.425457
-25.572112,-17.127104,-1.420673
-25.486195,-17.168016,-1.415900
-25.400191,-17.188922,-1.411122
-25.314321,-17.200647,-1.406351
-25.228311,-17.216142,-1.401573
-25.142386,-17.224676,-1.396799
-25.056377,-17.231547,-1.392021
-24.970349,-17.242041,-1.387242
-24.884451,-17.233024,-1.382469
-24.798574,-17.213822,-1.377699
-24.712725,-17.194048,-1.372929
-24.626960,-17.176068,-1.368164
-24.541388,-17.163783,-1.363410
-24.455709,-17.164471,-1.358651
-24.370006,-17.167253,-1.353889
-24.284413,-17.169887,-1.349134
-24.198989,-17.174326,-1.344388
-24.113675,-17.175964,-1.339649
-24.028232,-17.187110,-1.334902
-23.942767,-17.216432,-1.330154
-23.857303,-17.244929,-1.325406
-23.771879,-17.284205,-1.320660
-23.686548,-17.333988,-1.315919
-23.601413,-17.368252,-1.311190
-23.516435,-17.396925,-1.306469
-23.431289,-17.423100,-1.301738
-23.346258,-17.449281,-1.297014
-23.261251,-17.478414,-1.292292
-23.176458,-17.502925,-1.287581
-23.091629,-17.507123,-1.282868
-23.006681,-17.506842,-1.278149
-22.921560,-17.493525,-1.273420
-22.836351,-17.474170,-1.268686
-22.750858,-17.461694,-1.263937
-22.665189,-17.465921,-1.259177
-22.579406,-17.465381,-1.254411
-22.493363,-17.454460,-1.249631
-22.407050,-17.453239,-1.244836
-22.320603,-17.452866,-1.240034
-22.234071,-17.458960,-1.235226
-22.147497,-17.476587,-1.230417
-22.112713,-16.374703,-1.228484
-22.111143,-16.707782,-1.228397
-22.106220,-16.887772,-1.228123
-22.087812,-17.060648,-1.227101
-22.057132,-17.205689,-1.225396
-22.015789,-17.323937,-1.223099
-21.965057,-17.430375,-1.220281
-21.906190,-17.537737,-1.217011
-21.841153,-17.610170,-1.213397
-21.771949,-17.663166,-1.209553
-21.700489,-17.698995,-1.205583
-21.628292,-17.731219,-1.201572
-21.556258,-17.764152,-1.197570
-21.484187,-17.785264,-1.193566
-21.412062,-17.804273,-1.189559
-21.339992,-17.823990,-1.185555
-21.267730,-17.852328,-1.181541
-21.195517,-17.866711,-1.177529
-21.123012,-17.874344,-1.173501
-21.050192,-17.882703,-1.169455
-20.977456,-17.892470,-1.165414
-20.904896,-17.899971,-1.161383
-20.832206,-17.908469,-1.157345
-20.759600,-17.907077,-1.153311
-20.687186,-17.904964,-1.149288
-20.614919,-17.901993,-1.145273
-20.542835,-17.879925,-1.141269
-20.470758,-17.845261,-1.137264
-20.398958,-17.822583,-1.133275
-20.327535,-17.799163,-1.129308
-20.256258,-17.776005,-1.125348
-20.184782,-17.752846,-1.121377
-20.113414,-17.728393,-1.117412
-20.041792,-17.724188,-1.113433
-19.970063,-17.720552,-1.109448
-19.898073,-17.716219,-1.105448
-19.826028,-17.729312,-1.101446
-19.753965,-17.767634,-1.097443
-19.681854,-17.793928,-1.093436
-19.609566,-17.815846,-1.089420
-19.537332,-17.837061,-1.085407
-19.465119,-17.857999,-1.081396
-19.393013,-17.879648,-1.077390
-19.321116,-17.894056,-1.073395
-19.249348,-17.908319,-1.069408
-19.177748,-17.911644,-1.065430
-19.106380,-17.904446,-1.061466
-19.035216,-17.883595,-1.057512
-18.964168,-17.868551,-1.053565
-18.893235,-17.852639,-1.049624
-18.822270,-17.836150,-1.045682
-18.751706,-17.819629,-1.041761
-18.681098,-17.799404,-1.037839
-18.610493,-17.765512,-1.033916
-18.539781,-17.733032,-1.029988
-18.469078,-17.720030,-1.026060
-18.398113,-17.708316,-1.022117
-18.326894,-17.696325,-1.018161
-18.255685,-17.684611,-1.014205
-18.184413,-17.677736,-1.010245
-18.113055,-17.669579,-1.006281
-18.041530,-17.661426,-1.002307
-17.970131,-17.655968,-0.998341
-17.898817,-17.669890,-0.994379
-17.827734,-17.682948,-0.990430
-17.756578,-17.678327,-0.986477
-17.687739,-16.664192,-0.982652
-17.686500,-16.635012,-0.982583
-17.675292,-16.833362,-0.981961
-17.653813,-17.004185,-0.980767
-17.623234,-17.132301,-0.979069
-17.584570,-17.227641,-0.976921
-17.539034,-17.296556,-0.974391
-17.488051,-17.327536,-0.971558
-17.433511,-17.329312,-0.968528
-17.377209,-17.322190,-0.965400
-17.320655,-17.327933,-0.962259
-17.263953,-17.324970,-0.959109
-17.207272,-17.322290,-0.955960
-17.150603,-17.329469,-0.952811
-17.093861,-17.335224,-0.949659
-17.037014,-17.357998,-0.946501
-16.980073,-17.388936,-0.943337
-16.922771,-17.405746,-0.940154
-16.865449,-17.425422,-0.936969
-16.808180,-17.453543,-0.933788
-16.750719,-17.459074,-0.930596
-16.693387,-17.481345,-0.927410
-16.636035,-17.501619,-0.924224
-16.578607,-17.507014,-0.921034
-16.521212,-17.527587,-0.917845
-16.463753,-17.538287,-0.914653
-16.406282,-17.544406,-0.911460
-16.349003,-17.565991,-0.908278
-16.291681,-17.584862,-0.905093
-16.234261,-17.584966,-0.901903
-16.176860,-17.589370,-0.898714
-16.119163,-17.584039,-0.895509
-16.061432,-17.580859,-0.892302
-16.003702,-17.583414,-0.889095
-15.946089,-17.576493,-0.885894
-15.888632,-17.563676,-0.882702
-15.831142,-17.543105,-0.879508
-15.773581,-17.531141,-0.876310
-15.716033,-17.518310,-0.873113
-15.658582,-17.516956,-0.869921
-15.601208,-17.520049,-0.866734
-15.544093,-17.509336,-0.863561
-15.486926,-17.497327,-0.860385
-15.429941,-17.487314,-0.857219
-15.372579,-17.463375,-0.854032
-15.315079,-17.436415,-0.850838
-15.257625,-17.425977,-0.847646
-15.200145,-17.403886,-0.844452
-15.142496,-17.381939,-0.841250
-15.084783,-17.356534,-0.838043
-15.026971,-17.337023,-0.834832
-14.969012,-17.345001,-0.831612
-14.911053,-17.350535,-0.828392
-14.852828,-17.355220,-0.825157
-14.794722,-17.385244,-0.821929
-14.736696,-17.435006,-0.818705
-14.678676,-17.464616,-0.815482
-14.620739,-17.492791,-0.812263
-14.563023,-17.520098,-0.809057
-14.505372,-17.548708,-0.805854
-14.447717,-17.575309,-0.802651
-14.390354,-17.588059,-0.799464
-14.333061,-17.596194,-0.796281
-14.275786,-17.604186,-0.793099
-14.218841,-17.599176,-0.789936
-14.161914,-17.583629,-0.786773
-14.154330,-16.386925,-0.786352
-14.147428,-16.522502,-0.785968
-14.131828,-16.632572,-0.785102
-14.108295,-16.720854,-0.783794
-14.078101,-16.799547,-0.782117
-14.041860,-16.862127,-0.780103
-14.001060,-16.904322,-0.777837
-13.957197,-16.940196,-0.775400
-13.911848,-16.959120,-0.772880
-13.866094,-16.962471,-0.770339
-13.820154,-16.974211,-0.767786
-13.774115,-16.986104,-0.765229
-13.728227,-16.997991,-0.762679
-13.682485,-17.022302,-0.760138
-13.636557,-17.061083,-0.757587
-13.590985,-17.083086,-0.755055
-13.545212,-17.104817,-0.752512
-13.499456,-17.125975,-0.749970
-13.453921,-17.146836,-0.747440
-13.408368,-17.166836,-0.744909
-13.362920,-17.166292,-0.742384
-13.317623,-17.166028,-0.739868
-13.272073,-17.165199,-0.737337
-13.226408,-17.145994,-0.734800
-13.180950,-17.097966,-0.732275
-13.135136,-17.065433,-0.729730
-13.089525,-17.032444,-0.727196
-13.044065,-16.998858,-0.724670
-12.998300,-16.965857,-0.722128
-12.952571,-16.924298,-0.719587
-12.906688,-16.888818,-0.717038
-12.860450,-16.858273,-0.714469
-12.814448,-16.828865,-0.711914
-12.768781,-16.808562,-0.709377
-12.723112,-16.802313,-0.706840
-12.677832,-16.789661,-0.704324
-12.632468,-16.786725,-0.701804
-12.586868,-16.782930,-0.699270
-12.541455,-16.778978,-0.696747
-12.496023,-16.793885,-0.694224
-12.450743,-16.825472,-0.691708
-12.405615,-16.845740,-0.689201
-12.385296,-16.386074,-0.688072
-12.384656,-16.576506,-0.688036
-12.375554,-16.741993,-0.687531
-12.359104,-16.894679,-0.686617
-12.335899,-17.017849,-0.685328
-12.306530,-17.115825,-0.683696
-12.272567,-17.189392,-0.681809
-12.235107,-17.238194,-0.679728
-12.195520,-17.254017,-0.677529
-12.155309,-17.259712,-0.675295
-12.114861,-17.253220,-0.673048
-12.074379,-17.245856,-0.670799
-12.033864,-17.237766,-0.668548
-11.993046,-17.206586,-0.666280
-11.952246,-17.177140,-0.664014
-11.911901,-17.147371,-0.661772
-11.871674,-17.117296,-0.659537
-11.831634,-17.087784,-0.657313
-11.791661,-17.057680,-0.655092
-11.751671,-17.028294,-0.652871
-11.711714,-17.017369,-0.650651
-11.671589,-17.006159,-0.648422
-11.631582,-16.994648,-0.646199
-11.591692,-16.994766,-0.643983
-11.551634,-16.995184,-0.641757
-11.511458,-16.994734,-0.639525
-11.471163,-16.994291,-0.637287
-11.430817,-16.993267,-0.635045
-11.390522,-17.005342,-0.632807
-11.350243,-17.017127,-0.630569
-11.309897,-17.019162,-0.628328
-11.269804,-17.021037,-0.626100
-11.229525,-17.022777,-0.623863
-11.189264,-17.038064,-0.621626
-11.149138,-17.051744,-0.619397
-11.108962,-17.065575,-0.617165
-11.068769,-17.078973,-0.614932
-11.028578,-17.101993,-0.612699
-10.988472,-17.113498,-0.610471
-10.948434,-17.124710,-0.608246
-10.908360,-17.125138,-0.606020
-10.867999,-17.125580,-0.603778
-10.827908,-17.124986,-0.601550
-10.787799,-17.098138,-0.599322
-10.747673,-17.071575,-0.597093
-10.707682,-17.044268,-0.594871
-10.667995,-17.017230,-0.592666
-10.628458,-16.971642,-0.590470
-10.625404,-17.251853,-0.590300
-10.624154,-17.408072,-0.590231
