Test unit;CT01;
Reference;Senaldi et al. (2018);
top_displacement;horizontal_force;drift
[mm];[kN];[%]
-25.4754844000000;-45.2540504700000;-1.75692995900000
-25.4752410200000;-45.7823495000000;-1.75691317400000
-25.4671607500000;-46.2261142000000;-1.75635591400000
-25.4447209800000;-46.5657118400000;-1.75480834400000
-25.4129353700000;-46.8185035800000;-1.75261623200000
-25.3706356700000;-46.9836781600000;-1.74969901200000
-25.3226895300000;-47.0841133900000;-1.74639238100000
-25.2696323800000;-47.1284087400000;-1.74273326700000
-25.2134112600000;-47.1336008700000;-1.73885594900000
-25.1555351600000;-47.1141303800000;-1.73486449400000
-25.1011637500000;-47.1011500600000;-1.73111474100000
-25.0460621900000;-47.0876829800000;-1.72731463400000
-24.9853628600000;-47.0537718900000;-1.72312847300000
-24.9336199700000;-47.0487420100000;-1.71955999800000
-24.8825098700000;-47.0518248400000;-1.71603516400000
-24.8238062800000;-47.0323543600000;-1.71198664000000
-24.7651026800000;-47.0175892400000;-1.70793811600000
-24.7063504100000;-47.0073672400000;-1.70388623500000
-24.6472574000000;-47.0003903200000;-1.69981085500000
-24.5942976100000;-47.0188872700000;-1.69615845600000
-24.5398775300000;-47.0373842300000;-1.69240534700000
-24.4801517300000;-47.0403048100000;-1.68828632600000
-24.4231518100000;-47.0547454100000;-1.68435529700000
-24.3609435200000;-47.0529606200000;-1.68006507000000
-24.2979077400000;-47.0438743900000;-1.67571777500000
-24.2389120900000;-47.0487420100000;-1.67164911000000
-24.1714954500000;-47.0231058800000;-1.66699968600000
-24.1035433700000;-46.9922776100000;-1.66231333600000
-24.0356886400000;-46.9591777900000;-1.65763369900000
-23.9549347000000;-46.8848654500000;-1.65206446200000
-23.8751056100000;-46.8125001600000;-1.64655900700000
-23.8038435400000;-46.7708008700000;-1.64164438200000
-23.7325328000000;-46.7334824500000;-1.63672640000000
-23.6606866200000;-46.6992468500000;-1.63177149100000
-23.5887917600000;-46.6706901400000;-1.62681322500000
-23.5215698300000;-46.6585210900000;-1.62217723000000
-23.4696809200000;-46.7015184100000;-1.61859868400000
-23.4171592200000;-46.7480853100000;-1.61497649800000
-23.3695538300000;-46.8120133900000;-1.61169336800000
-23.3377195500000;-46.9247799400000;-1.60949790000000
-23.3017477800000;-47.0216455900000;-1.60701708800000
-23.2563328200000;-47.0824908400000;-1.60388502200000
-23.2099443400000;-47.1342498800000;-1.60068581600000
-23.1634585000000;-47.1791942400000;-1.59747989700000
-23.1173620800000;-47.2187842200000;-1.59430083300000
-23.0706815300000;-47.2552913800000;-1.59108148500000
-23.0129514800000;-47.2497747400000;-1.58710010200000
-22.9506458600000;-47.2228405700000;-1.58280316300000
-22.8851276000000;-47.1826015800000;-1.57828466200000
-22.8112370300000;-47.1133191100000;-1.57318876100000
-22.7396342400000;-47.0492287700000;-1.56825063700000
-22.6781074400000;-47.0169402200000;-1.56400741000000
-22.6090845000000;-46.9590155400000;-1.55924720700000
-22.5414731700000;-46.9038491700000;-1.55458435600000
-22.4785834300000;-46.8640969400000;-1.55024713300000
-22.4081488800000;-46.7965992600000;-1.54538957800000
-22.3437988600000;-46.7471117900000;-1.54095164600000
-22.2889893900000;-46.7278035600000;-1.53717168200000
-22.2271218600000;-46.6852930100000;-1.53290495600000
-22.1662765300000;-46.6437559800000;-1.52870872600000
-22.1102988300000;-46.6173085700000;-1.52484819500000
-22.0494048300000;-46.5741490000000;-1.52064860900000
-22.0033570900000;-46.5780431000000;-1.51747290300000
-21.9540480400000;-46.5733377300000;-1.51407227800000
-21.8956365200000;-46.5374795900000;-1.51004389800000
-21.8382958900000;-46.5037307600000;-1.50608937200000
-21.7773532200000;-46.4594354100000;-1.50188642900000
-21.7083302800000;-46.3869078700000;-1.49712622700000
-21.6501134800000;-46.3489404300000;-1.49311127500000
-21.5848873000000;-46.2900422200000;-1.48861291700000
-21.5268196300000;-45.1773043200000;-1.48460825000000
-21.5163668200000;-45.7489251800000;-1.48388736700000
-21.5151664900000;-46.2845257300000;-1.48380458600000
-21.5136482100000;-46.9285119100000;-1.48369987600000
-21.5019542800000;-50.4943687900000;-1.48289339800000
-21.5018564000000;-51.0741024700000;-1.48288664800000
-21.4910619100000;-51.5779012600000;-1.48214220000000
-21.4701131800000;-52.0059274200000;-1.48069746100000
-21.4405957500000;-52.3299487500000;-1.47866177600000
-21.4037617600000;-52.6022110300000;-1.47612150100000
-21.3604981600000;-52.8257971100000;-1.47313780400000
-21.3121074000000;-52.9771801300000;-1.46980051000000
-21.2596472900000;-53.0745325600000;-1.46618257200000
-21.2052215300000;-53.1159073400000;-1.46242907100000
-21.1493133900000;-53.1167186200000;-1.45857333700000
-21.0926693400000;-53.1139603000000;-1.45466685100000
-21.0359646300000;-53.0852413300000;-1.45075618200000
-20.9794667900000;-53.0276411400000;-1.44685977800000
-20.9228919100000;-53.0073593900000;-1.44295806200000
-20.8660043300000;-52.9719880000000;-1.43903478100000
-20.8090489900000;-52.9244475600000;-1.43510682700000
-20.7522079200000;-52.9186064200000;-1.43118675300000
-20.6957946200000;-52.8978379000000;-1.42729618100000
-20.6391430800000;-52.8623042600000;-1.42338917800000
-20.5826134000000;-52.8259593500000;-1.41949057900000
-20.5259062600000;-52.7621935100000;-1.41557974200000
-20.4691519200000;-52.7084874200000;-1.41166564900000
-20.4122601500000;-52.6833380400000;-1.40774207900000
-20.3551751900000;-52.6129197800000;-1.40380518600000
-20.2981279900000;-52.5421770100000;-1.39987089600000
-20.2410878500000;-52.4709474800000;-1.39593709300000
-20.1838157900000;-52.3492569400000;-1.39198729600000
-20.1261078100000;-52.2519045000000;-1.38800743500000
-20.0684087800000;-52.1840823100000;-1.38402819200000
-20.0105023700000;-52.1175581400000;-1.38003464600000
-19.9529202400000;-52.0935445400000;-1.37606346500000
-19.8953619900000;-52.0690441800000;-1.37209393000000
-19.8377170800000;-52.0206924700000;-1.36811842000000
-19.7802601900000;-52.0216659900000;-1.36415587500000
-19.7228416400000;-52.0215037400000;-1.36019597500000
-19.6652993900000;-52.0206924700000;-1.35622754400000
-19.6078690000000;-52.0632030300000;-1.35226682700000
-19.5505816900000;-52.0758588500000;-1.34831597800000
-19.4931603000000;-52.0632030300000;-1.34435588300000
-19.4356409500000;-52.0591466800000;-1.34038903100000
-19.3776451500000;-52.0325370200000;-1.33638932100000
-19.3193716000000;-52.0052783400000;-1.33237045500000
-19.2611222300000;-51.9909999800000;-1.32835325700000
-19.2027457000000;-51.9343733200000;-1.32432729000000
-19.1443691700000;-51.8783956700000;-1.32030132200000
-19.0859010100000;-51.8256631100000;-1.31626903500000
-19.0273435900000;-51.7398307100000;-1.31223059300000
-18.9686880700000;-51.6819060200000;-1.30818538400000
-18.9101678100000;-51.6429650400000;-1.30414950400000
-18.8517447100000;-51.5903947300000;-1.30012032500000
-18.7935286100000;-51.5389602000000;-1.29610542200000
-18.7353113100000;-51.4914197600000;-1.29209043500000
-18.6769647400000;-51.4453396100000;-1.28806653400000
-18.6184695200000;-51.4289519500000;-1.28403238100000
-18.5597277100000;-51.4133755600000;-1.27998122100000
-18.5009855000000;-51.3981236800000;-1.27593003500000
-18.4420108500000;-51.4063986300000;-1.27186281700000
-18.3832161400000;-51.3896864700000;-1.26780801000000
-18.3242719200000;-51.3637258200000;-1.26374289100000
-18.2652648300000;-51.3646993500000;-1.25967343700000
-18.2062634200000;-51.3651861100000;-1.25560437400000
-18.1474179200000;-51.3646993500000;-1.25154606400000
-18.0889544300000;-51.3637258200000;-1.24751409800000
-18.0306882400000;-51.3322485400000;-1.24349574100000
-17.9726344500000;-51.2962281400000;-1.23949203100000
-17.9574169100000;-50.8706359200000;-1.23844254600000
-17.9569914000000;-51.4589690800000;-1.23841320000000
-17.9530410900000;-54.4965273200000;-1.23814076500000
-17.9512681700000;-57.2814562800000;-1.23801849500000
-17.9461716200000;-57.8868262600000;-1.23766700900000
-17.9302552300000;-58.4026319900000;-1.23656932600000
-17.9046068300000;-58.8369861800000;-1.23480047100000
-17.8700618500000;-59.2210416000000;-1.23241805900000
-17.8281971500000;-59.5775138400000;-1.22953083800000
-17.7804910300000;-59.8513987500000;-1.22624076100000
-17.7281491200000;-60.0827730900000;-1.22263097400000
-17.6729053600000;-60.2927298900000;-1.21882105900000
-17.6158216600000;-60.4598516200000;-1.21488425200000
-17.5574138800000;-60.5732672300000;-1.21085613000000
-17.4984458200000;-60.6488776400000;-1.20678936700000
-17.4393995300000;-60.7210807200000;-1.20271720900000
-17.3804437100000;-60.7885784200000;-1.19865129100000
-17.3216848900000;-60.8591589600000;-1.19459895800000
-17.2628547400000;-60.9071861700000;-1.19054170600000
-17.2037378600000;-60.9443423600000;-1.18646468000000
-17.1446362400000;-60.9628393300000;-1.18238870600000
-17.0851459600000;-60.9617035500000;-1.17828592800000
-17.0254873200000;-60.9579717100000;-1.17417154000000
-16.9658575000000;-60.9662466700000;-1.17005913800000
-16.9062220800000;-60.9694917500000;-1.16594635100000
-16.8462547200000;-60.9703030200000;-1.16181067000000
-16.7859954900000;-60.9686804800000;-1.15765486100000
-16.7254053700000;-60.9513192900000;-1.15347623300000
-16.6647110200000;-60.9073484300000;-1.14929041500000
-16.6039270900000;-60.8731128100000;-1.14509842000000
-16.5430433000000;-60.8440693300000;-1.14089953800000
-16.4823566900000;-60.8121052700000;-1.13671425400000
-16.4216700800000;-60.7765716200000;-1.13252897100000
-16.3609887000000;-60.7399021900000;-1.12834404800000
-16.3001433200000;-60.7090739100000;-1.12414781500000
-16.2393413600000;-60.6728912400000;-1.11995457700000
-16.1784951700000;-60.6320032100000;-1.11575828800000
-16.1179504300000;-60.5875455800000;-1.11158278800000
-16.0573821600000;-60.5812176700000;-1.10740566600000
-15.9968938900000;-60.5711579200000;-1.10323406200000
-15.9360775100000;-60.5602868900000;-1.09903982800000
-15.8752210800000;-60.5502271400000;-1.09484283300000
-15.8143245900000;-60.5411409100000;-1.09064307500000
-15.7534401100000;-60.5093391000000;-1.08644414600000
-15.6927152600000;-60.4875970500000;-1.08225622500000
-15.6320175300000;-60.4793221000000;-1.07807017400000
-15.5715521100000;-60.4444374700000;-1.07390014500000
-15.5108773300000;-60.4098773400000;-1.06971567800000
-15.4502194100000;-60.3495188200000;-1.06553237300000
-15.3897344100000;-60.2851039400000;-1.06136099400000
-15.3298591700000;-60.2455139400000;-1.05723166700000
-15.2704484600000;-60.2044636500000;-1.05313437600000
-15.2114216300000;-60.1556251700000;-1.04906356100000
-15.1529124800000;-60.1442673800000;-1.04502844700000
-15.0946969900000;-60.1269061900000;-1.04101358600000
-15.0370059000000;-60.0840711100000;-1.03703489000000
-14.9794511600000;-60.0913725400000;-1.03306559700000
-14.9225653500000;-60.0957534000000;-1.02914243800000
-14.8663919200000;-60.0881274600000;-1.02526840800000
-14.8106529700000;-60.0665476600000;-1.02142434300000
-14.7553649100000;-60.0005102400000;-1.01761137300000
-14.6998201700000;-59.9347973300000;-1.01378070100000
-14.6443985400000;-59.8720050000000;-1.00995852000000
-14.5888719400000;-59.7894176600000;-1.00612909900000
-14.5336151200000;-59.6803829000000;-1.00231828400000
-14.4782218200000;-59.5838417100000;-0.998498056000000
-14.4228870200000;-59.4593928200000;-0.994681864000000
-14.3759921600000;-64.3361027700000;-0.991447735000000
-14.3742531000000;-65.0128647300000;-0.991327800000000
-14.3631656200000;-65.5906516700000;-0.990563146000000
-14.3436765900000;-66.0410691300000;-0.989219075000000
-14.3169235100000;-66.3545441000000;-0.987374035000000
-14.3136367200000;-67.7525260300000;-0.987147360000000
-14.3090500500000;-68.3984597900000;-0.986831038000000
-14.2959659100000;-68.9296798800000;-0.985928683000000
-14.2753874100000;-69.3810709300000;-0.984509477000000
-14.2483156700000;-69.7492256100000;-0.982642460000000
-14.2158284300000;-70.0093190200000;-0.980401961000000
-14.1789623700000;-70.1942887700000;-0.977859474000000
-14.1390018400000;-70.3393440000000;-0.975103575000000
-14.0972356900000;-70.4274480100000;-0.972223151000000
-14.0541557800000;-70.4840747200000;-0.969252123000000
-14.0103215300000;-70.5145785000000;-0.966229071000000
-13.9661940700000;-70.5296681400000;-0.963185798000000
-13.9221597600000;-70.5398901500000;-0.960148949000000
-13.8782383000000;-70.5585493900000;-0.957119882000000
-13.8344858200000;-70.5702316900000;-0.954102470000000
-13.7905730000000;-70.5622812300000;-0.951074000000000
-13.7467416300000;-70.5531950000000;-0.948051147000000
-13.7028770200000;-70.5319397000000;-0.945026002000000
-13.6589653900000;-70.5124692000000;-0.941997613000000
-13.6148422000000;-70.4897536100000;-0.938954634000000
-13.5707597900000;-70.4673625400000;-0.935914468000000
-13.5268862600000;-70.4448092100000;-0.932888708000000
-13.4827916900000;-70.4263122300000;-0.929847703000000
-13.4383803100000;-70.3734173700000;-0.926784849000000
-13.3935944300000;-70.3227940700000;-0.923696167000000
-13.3490416500000;-70.3057573800000;-0.920623562000000
-13.3044919300000;-70.2882339300000;-0.917551167000000
-13.2597023900000;-70.2604884700000;-0.914462234000000
-13.2146987700000;-70.2385841600000;-0.911358536000000
-13.1698279700000;-70.2207362000000;-0.908263998000000
-13.1249574600000;-70.2007789300000;-0.905169480000000
-13.0798366900000;-70.1793613800000;-0.902057703000000
-13.0348439700000;-70.1555100200000;-0.898954756000000
-12.9899243100000;-70.1621624400000;-0.895856849000000
-12.9454208800000;-70.1663810400000;-0.892787647000000
-12.9007599000000;-70.1532384600000;-0.889707579000000
-12.8560147100000;-70.1397713600000;-0.886621704000000
-12.8113363900000;-70.1438277100000;-0.883540441000000
-12.7669588900000;-70.1340924600000;-0.880479924000000
-12.7226195100000;-70.1214366300000;-0.877422035000000
-12.6782373100000;-70.1087808100000;-0.874361193000000
-12.6340619800000;-70.0972607600000;-0.871314619000000
-12.5898478200000;-70.0904460900000;-0.868265367000000
-12.5455870000000;-70.0844426800000;-0.865212897000000
-12.5010391200000;-70.0748696900000;-0.862140629000000
-12.4564105000000;-70.0529653700000;-0.859062793000000
-12.4116958200000;-70.0304120400000;-0.855979022000000
-12.3669042400000;-69.9995837500000;-0.852889948000000
-12.3218594800000;-69.9789774700000;-0.849783412000000
-12.2768129600000;-69.9513942600000;-0.846676756000000
-12.2315591500000;-69.9247845700000;-0.843555804000000
-12.1858863800000;-69.8997974300000;-0.840405957000000
-12.1398745000000;-69.8688068800000;-0.837232724000000
-12.0938346300000;-69.8019581600000;-0.834057561000000
-12.0477887100000;-69.7453314600000;-0.830881980000000
-12.0017747100000;-69.7162879600000;-0.827708600000000
-11.9556373400000;-69.6867577000000;-0.824526713000000
-11.9094999700000;-69.6567406800000;-0.821344826000000
-11.8632763000000;-69.6238030800000;-0.818156986000000
-11.8168020500000;-69.6041703300000;-0.814951866000000
-11.7705372800000;-69.5808057300000;-0.811761192000000
-11.7245661900000;-69.5540337900000;-0.808590772000000
-11.6789319200000;-69.5329407500000;-0.805443580000000
-11.6333671300000;-69.5606862100000;-0.802301181000000
-11.5877226500000;-69.5748023300000;-0.799153286000000
-11.5419619200000;-69.5593881800000;-0.795997374000000
-11.5030055600000;-67.2420744600000;-0.793310728000000
-11.5022413500000;-71.2998889100000;-0.793258024000000
-11.4957262000000;-71.8296487900000;-0.792808703000000
-11.4826730400000;-72.3091099000000;-0.791908486000000
-11.4641414000000;-72.7098777300000;-0.790630442000000
-11.4402199100000;-73.0210812600000;-0.788980683000000
-11.4124662500000;-73.2535915100000;-0.787066638000000
-11.3812980100000;-73.4392103000000;-0.784917104000000
-11.3478947000000;-73.5660930800000;-0.782613428000000
-11.3126489900000;-73.6350511100000;-0.780182689000000
-11.2764879600000;-73.6249913500000;-0.777688825000000
-11.2396103000000;-73.5961101000000;-0.775145538000000
-11.2021858500000;-73.5610631900000;-0.772564542000000
-11.1644319500000;-73.4987575800000;-0.769960824000000
-11.1260418200000;-73.4643596800000;-0.767313229000000
-11.0879018400000;-73.4296372900000;-0.764682885000000
-11.0492551300000;-73.3960506700000;-0.762017595000000
-11.0104764000000;-73.3908585300000;-0.759343200000000
-10.9714446300000;-73.4046501400000;-0.756651354000000
-10.9323687400000;-73.4009182900000;-0.753956465000000
-10.8929921000000;-73.4195775300000;-0.751240834000000
-10.8534053300000;-73.4387235300000;-0.748510713000000
-10.8136081800000;-73.4572205100000;-0.745766081000000
-10.7738946900000;-73.4607901000000;-0.743027220000000
-10.7344847400000;-73.4083819900000;-0.740309293000000
-10.6949076100000;-73.3562984000000;-0.737579835000000
-10.6553729400000;-73.3021054900000;-0.734853306000000
-10.6159316100000;-73.1932329300000;-0.732133214000000
-10.5760742300000;-73.0465551300000;-0.729384430000000
-10.5360452200000;-72.9157782400000;-0.726623808000000
-10.4957632500000;-72.7976571900000;-0.723845742000000
-10.4552707400000;-72.6795361300000;-0.721053154000000
-10.4149455700000;-72.5599547800000;-0.718272108000000
-10.3741564900000;-72.4596816900000;-0.715459068000000
-10.3332367700000;-72.3871540600000;-0.712637018000000
-10.2918964200000;-72.3141396700000;-0.709785960000000
-10.2503450700000;-72.2404762700000;-0.706920350000000
-10.2085344900000;-72.2112705100000;-0.704036862000000
-10.1672236100000;-72.2229528200000;-0.701187835000000
-10.1258714100000;-72.2318768000000;-0.698335959000000
-10.0887226700000;-72.3204677700000;-0.695773977000000
-10.0844295700000;-72.8933872900000;-0.695477901000000
-10.0739048700000;-73.3580832700000;-0.694752060000000
-10.0578239600000;-73.7007641100000;-0.693643032000000
-10.0463306900000;-76.4185224000000;-0.692850393000000
-10.0441267800000;-77.1072915600000;-0.692698398000000
-10.0356955900000;-77.6664196000000;-0.692116937000000
-10.0219635500000;-78.1259235500000;-0.691169900000000
-10.0177782800000;-80.6098739700000;-0.690881261000000
-10.0159623000000;-81.2193009300000;-0.690756021000000
-10.0082486100000;-81.7401370800000;-0.690224042000000
-9.99523092500000;-82.1488555400000;-0.689326271000000
-9.97724651500000;-82.4558405900000;-0.688085967000000
-9.95530763600000;-82.6740725700000;-0.686572940000000
-9.92995526700000;-82.8473601200000;-0.684824501000000
-9.90207643900000;-82.9549347000000;-0.682901823000000
-9.87242817300000;-83.0294094100000;-0.680857115000000
-9.84218796700000;-83.0790592200000;-0.678771584000000
-9.81123123900000;-83.0800327500000;-0.676636637000000
-9.78014825200000;-83.0706220000000;-0.674492983000000
-9.74893881500000;-83.0605622300000;-0.672340608000000
-9.71772881900000;-83.0313564600000;-0.670188194000000
-9.68672812200000;-83.0024752000000;-0.668050215000000
-9.65589249300000;-82.9993923700000;-0.665923620000000
-9.62531217400000;-82.9557459700000;-0.663814633000000
-9.59477467300000;-82.9108015300000;-0.661708598000000
-9.56427974800000;-82.8652080800000;-0.659605500000000
-9.53370076800000;-82.8178298300000;-0.657496605000000
-9.50358385400000;-82.8147470000000;-0.655419576000000
-9.47308827600000;-82.8115019100000;-0.653316433000000
-9.44263500200000;-82.8058230100000;-0.651216207000000
-9.41222285200000;-82.8444395300000;-0.649118817000000
-9.38185232300000;-82.9077187000000;-0.647024298000000
-9.35152451200000;-82.9435769000000;-0.644932725000000
-9.32085891700000;-83.0084786100000;-0.642817856000000
-9.29036195000000;-83.0702974900000;-0.640714617000000
-9.26011769200000;-83.1309805900000;-0.638628806000000
-9.22991648000000;-83.2112964600000;-0.636545964000000
-9.19933681200000;-83.2693834900000;-0.634437022000000
-9.16930452200000;-83.3136789100000;-0.632365829000000
