Test unit;IC1;
Reference;Ponte et al. (2023);
top_displacement;horizontal_force;drift
[mm];[kN];[%]
-0.0701281250000000;-56.9952000000000;-5.61025000000000
-0.0701156250000000;-56.9814000000000;-5.60925000000000
-0.0701031250000000;-56.9660000000000;-5.60825000000000
-0.0700906250000000;-56.9507000000000;-5.60725000000000
-0.0700781250000000;-56.9353000000000;-5.60625000000000
-0.0700656250000000;-56.9199000000000;-5.60525000000000
-0.0700531250000000;-56.9045000000000;-5.60425000000000
-0.0700406250000000;-56.8891000000000;-5.60325000000000
-0.0700281250000000;-56.8737000000000;-5.60225000000000
-0.0700156250000000;-56.8584000000000;-5.60125000000000
-0.0700031250000000;-56.8430000000000;-5.60025000000000
-0.0699906250000000;-56.8276000000000;-5.59925000000000
-0.0699781250000000;-56.8122000000000;-5.59825000000000
-0.0699656250000000;-56.7968000000000;-5.59725000000000
-0.0699531250000000;-56.7814000000000;-5.59625000000000
-0.0699406250000000;-56.7661000000000;-5.59525000000000
-0.0699281250000000;-56.7507000000000;-5.59425000000000
-0.0699156250000000;-56.7353000000000;-5.59325000000000
-0.0699031250000000;-56.7199000000000;-5.59225000000000
-0.0698906250000000;-56.7045000000000;-5.59125000000000
-0.0698781250000000;-56.6892000000000;-5.59025000000000
-0.0698656250000000;-56.6738000000000;-5.58925000000000
-0.0698531250000000;-56.6584000000000;-5.58825000000000
-0.0698406250000000;-56.6430000000000;-5.58725000000000
-0.0698281250000000;-56.6276000000000;-5.58625000000000
-0.0698156250000000;-56.6122000000000;-5.58525000000000
-0.0698031250000000;-56.5969000000000;-5.58425000000000
-0.0697906250000000;-56.5815000000000;-5.58325000000000
-0.0697781250000000;-56.5661000000000;-5.58225000000000
-0.0697656250000000;-56.5507000000000;-5.58125000000000
-0.0697531250000000;-56.5353000000000;-5.58025000000000
-0.0697406250000000;-56.5200000000000;-5.57925000000000
-0.0697281250000000;-56.5046000000000;-5.57825000000000
-0.0697156250000000;-56.4892000000000;-5.57725000000000
-0.0697031250000000;-56.4840000000000;-5.57625000000000
-0.0696906250000000;-56.4840000000000;-5.57525000000000
-0.0696781250000000;-56.4840000000000;-5.57425000000000
-0.0696656250000000;-56.4840000000000;-5.57325000000000
-0.0696531250000000;-56.4840000000000;-5.57225000000000
-0.0696406250000000;-56.4840000000000;-5.57125000000000
-0.0696281250000000;-56.4840000000000;-5.57025000000000
-0.0696156250000000;-56.4840000000000;-5.56925000000000
-0.0696031250000000;-56.4840000000000;-5.56825000000000
-0.0695906250000000;-56.4840000000000;-5.56725000000000
-0.0695781250000000;-56.4840000000000;-5.56625000000000
-0.0695656250000000;-56.4840000000000;-5.56525000000000
-0.0695531250000000;-56.4840000000000;-5.56425000000000
-0.0695406250000000;-56.4840000000000;-5.56325000000000
-0.0695281250000000;-56.4840000000000;-5.56225000000000
-0.0695156250000000;-56.4840000000000;-5.56125000000000
-0.0695031250000000;-56.4840000000000;-5.56025000000000
-0.0694906250000000;-56.4840000000000;-5.55925000000000
-0.0694781250000000;-56.4840000000000;-5.55825000000000
-0.0694656250000000;-56.4840000000000;-5.55725000000000
-0.0694531250000000;-56.4840000000000;-5.55625000000000
-0.0694406250000000;-56.4840000000000;-5.55525000000000
-0.0694281250000000;-56.4840000000000;-5.55425000000000
-0.0694156250000000;-56.4840000000000;-5.55325000000000
-0.0694031250000000;-56.4840000000000;-5.55225000000000
-0.0693906250000000;-56.4840000000000;-5.55125000000000
-0.0693781250000000;-56.4840000000000;-5.55025000000000
-0.0693656250000000;-56.4840000000000;-5.54925000000000
-0.0693531250000000;-56.4840000000000;-5.54825000000000
-0.0693406250000000;-56.4840000000000;-5.54725000000000
-0.0693281250000000;-56.4840000000000;-5.54625000000000
-0.0693156250000000;-56.4840000000000;-5.54525000000000
-0.0693031250000000;-56.4840000000000;-5.54425000000000
-0.0692906250000000;-56.4840000000000;-5.54325000000000
-0.0692781250000000;-56.4840000000000;-5.54225000000000
-0.0692656250000000;-56.4840000000000;-5.54125000000000
-0.0692531250000000;-56.4840000000000;-5.54025000000000
-0.0692406250000000;-56.4840000000000;-5.53925000000000
-0.0692281250000000;-56.4840000000000;-5.53825000000000
-0.0692156250000000;-56.4840000000000;-5.53725000000000
-0.0692031250000000;-56.4840000000000;-5.53625000000000
-0.0691906250000000;-56.4840000000000;-5.53525000000000
-0.0691781250000000;-56.4840000000000;-5.53425000000000
-0.0691656250000000;-56.4840000000000;-5.53325000000000
-0.0691531250000000;-56.4840000000000;-5.53225000000000
-0.0691406250000000;-56.4840000000000;-5.53125000000000
-0.0691281250000000;-56.4840000000000;-5.53025000000000
-0.0691156250000000;-56.4840000000000;-5.52925000000000
-0.0691031250000000;-56.4840000000000;-5.52825000000000
-0.0690906250000000;-56.4840000000000;-5.52725000000000
-0.0690781250000000;-56.4840000000000;-5.52625000000000
-0.0690656250000000;-56.4840000000000;-5.52525000000000
-0.0690531250000000;-56.4840000000000;-5.52425000000000
-0.0690406250000000;-56.4840000000000;-5.52325000000000
-0.0690281250000000;-56.4840000000000;-5.52225000000000
-0.0690156250000000;-56.4840000000000;-5.52125000000000
-0.0690031250000000;-56.4840000000000;-5.52025000000000
-0.0689906250000000;-56.4840000000000;-5.51925000000000
-0.0689781250000000;-56.4840000000000;-5.51825000000000
-0.0689656250000000;-56.4840000000000;-5.51725000000000
-0.0689531250000000;-56.4840000000000;-5.51625000000000
-0.0689406250000000;-56.4840000000000;-5.51525000000000
-0.0689281250000000;-56.4840000000000;-5.51425000000000
-0.0689156250000000;-56.4840000000000;-5.51325000000000
-0.0689031250000000;-56.4840000000000;-5.51225000000000
-0.0688906250000000;-56.4840000000000;-5.51125000000000
-0.0688781250000000;-56.4777000000000;-5.51025000000000
-0.0688656250000000;-56.4623000000000;-5.50925000000000
-0.0688531250000000;-56.4469000000000;-5.50825000000000
-0.0688406250000000;-56.4315000000000;-5.50725000000000
-0.0688281250000000;-56.4162000000000;-5.50625000000000
-0.0688156250000000;-56.4008000000000;-5.50525000000000
-0.0688031250000000;-56.3854000000000;-5.50425000000000
-0.0687906250000000;-56.3700000000000;-5.50325000000000
-0.0687781250000000;-56.3546000000000;-5.50225000000000
-0.0687656250000000;-56.3393000000000;-5.50125000000000
-0.0687531250000000;-56.3239000000000;-5.50025000000000
-0.0687406250000000;-56.3085000000000;-5.49925000000000
-0.0687281250000000;-56.2931000000000;-5.49825000000000
-0.0687156250000000;-56.2777000000000;-5.49725000000000
-0.0687031250000000;-56.2623000000000;-5.49625000000000
-0.0686906250000000;-56.2470000000000;-5.49525000000000
-0.0686781250000000;-56.2316000000000;-5.49425000000000
-0.0686656250000000;-56.2162000000000;-5.49325000000000
-0.0686531250000000;-56.2008000000000;-5.49225000000000
-0.0686406250000000;-56.1854000000000;-5.49125000000000
-0.0686281250000000;-56.1700000000000;-5.49025000000000
-0.0686156250000000;-56.1547000000000;-5.48925000000000
-0.0686031250000000;-56.1393000000000;-5.48825000000000
-0.0685906250000000;-56.1239000000000;-5.48725000000000
-0.0685781250000000;-56.1085000000000;-5.48625000000000
-0.0685656250000000;-56.0931000000000;-5.48525000000000
-0.0685531250000000;-56.0778000000000;-5.48425000000000
-0.0685406250000000;-56.0624000000000;-5.48325000000000
-0.0685281250000000;-56.0470000000000;-5.48225000000000
-0.0685156250000000;-56.0316000000000;-5.48125000000000
-0.0685031250000000;-56.0162000000000;-5.48025000000000
-0.0684906250000000;-56.0008000000000;-5.47925000000000
-0.0684781250000000;-55.9855000000000;-5.47825000000000
-0.0684656250000000;-55.9728000000000;-5.47725000000000
-0.0684531250000000;-55.9728000000000;-5.47625000000000
-0.0684406250000000;-55.9728000000000;-5.47525000000000
-0.0684281250000000;-55.9728000000000;-5.47425000000000
-0.0684156250000000;-55.9728000000000;-5.47325000000000
-0.0684031250000000;-55.9728000000000;-5.47225000000000
-0.0683906250000000;-55.9728000000000;-5.47125000000000
-0.0683781250000000;-55.9728000000000;-5.47025000000000
-0.0683656250000000;-55.9728000000000;-5.46925000000000
-0.0683531250000000;-55.9728000000000;-5.46825000000000
-0.0683406250000000;-55.9728000000000;-5.46725000000000
-0.0683281250000000;-55.9728000000000;-5.46625000000000
-0.0683156250000000;-55.9728000000000;-5.46525000000000
-0.0683031250000000;-55.9728000000000;-5.46425000000000
-0.0682906250000000;-55.9728000000000;-5.46325000000000
-0.0682781250000000;-55.9728000000000;-5.46225000000000
-0.0682656250000000;-55.9728000000000;-5.46125000000000
-0.0682531250000000;-55.9728000000000;-5.46025000000000
-0.0682406250000000;-55.9728000000000;-5.45925000000000
-0.0682281250000000;-55.9728000000000;-5.45825000000000
-0.0682156250000000;-55.9728000000000;-5.45725000000000
-0.0682031250000000;-55.9728000000000;-5.45625000000000
-0.0681906250000000;-55.9728000000000;-5.45525000000000
-0.0681781250000000;-55.9728000000000;-5.45425000000000
-0.0681656250000000;-55.9728000000000;-5.45325000000000
-0.0681531250000000;-55.9728000000000;-5.45225000000000
-0.0681406250000000;-55.9728000000000;-5.45125000000000
-0.0681281250000000;-55.9728000000000;-5.45025000000000
-0.0681156250000000;-55.9728000000000;-5.44925000000000
-0.0681031250000000;-55.9728000000000;-5.44825000000000
-0.0680906250000000;-55.9728000000000;-5.44725000000000
-0.0680781250000000;-55.9728000000000;-5.44625000000000
-0.0680656250000000;-55.9728000000000;-5.44525000000000
-0.0680531250000000;-55.9728000000000;-5.44425000000000
-0.0680406250000000;-55.9728000000000;-5.44325000000000
-0.0680281250000000;-55.9728000000000;-5.44225000000000
-0.0680156250000000;-55.9728000000000;-5.44125000000000
-0.0680031250000000;-55.9728000000000;-5.44025000000000
-0.0679906250000000;-55.9728000000000;-5.43925000000000
-0.0679781250000000;-55.9728000000000;-5.43825000000000
-0.0679656250000000;-55.9728000000000;-5.43725000000000
-0.0679531250000000;-55.9728000000000;-5.43625000000000
-0.0679406250000000;-55.9728000000000;-5.43525000000000
-0.0679281250000000;-55.9728000000000;-5.43425000000000
-0.0679156250000000;-55.9728000000000;-5.43325000000000
-0.0679031250000000;-55.9728000000000;-5.43225000000000
-0.0678906250000000;-55.9728000000000;-5.43125000000000
-0.0678781250000000;-55.9728000000000;-5.43025000000000
-0.0678656250000000;-55.9728000000000;-5.42925000000000
-0.0678531250000000;-55.9728000000000;-5.42825000000000
-0.0678406250000000;-55.9728000000000;-5.42725000000000
-0.0678281250000000;-55.9728000000000;-5.42625000000000
-0.0678156250000000;-55.9728000000000;-5.42525000000000
-0.0678031250000000;-55.9728000000000;-5.42425000000000
-0.0677906250000000;-55.9728000000000;-5.42325000000000
-0.0677781250000000;-55.9728000000000;-5.42225000000000
-0.0677656250000000;-55.9728000000000;-5.42125000000000
-0.0677531250000000;-55.9728000000000;-5.42025000000000
-0.0677406250000000;-55.9728000000000;-5.41925000000000
-0.0677281250000000;-55.9728000000000;-5.41825000000000
-0.0677156250000000;-55.9728000000000;-5.41725000000000
-0.0677031250000000;-55.9728000000000;-5.41625000000000
-0.0676906250000000;-55.9728000000000;-5.41525000000000
-0.0676781250000000;-55.9728000000000;-5.41425000000000
-0.0676656250000000;-55.9728000000000;-5.41325000000000
-0.0676531250000000;-55.9728000000000;-5.41225000000000
-0.0676406250000000;-55.9728000000000;-5.41125000000000
-0.0676281250000000;-55.9444000000000;-5.41025000000000
-0.0676156250000000;-55.9138000000000;-5.40925000000000
-0.0676031250000000;-55.8831000000000;-5.40825000000000
-0.0675906250000000;-55.8524000000000;-5.40725000000000
-0.0675781250000000;-55.8218000000000;-5.40625000000000
-0.0675656250000000;-55.7911000000000;-5.40525000000000
-0.0675531250000000;-55.7604000000000;-5.40425000000000
-0.0675406250000000;-55.7298000000000;-5.40325000000000
-0.0675281250000000;-55.6991000000000;-5.40225000000000
-0.0675156250000000;-55.6684000000000;-5.40125000000000
-0.0675031250000000;-55.6378000000000;-5.40025000000000
-0.0674906250000000;-55.6071000000000;-5.39925000000000
-0.0674781250000000;-55.5764000000000;-5.39825000000000
-0.0674656250000000;-55.5458000000000;-5.39725000000000
-0.0674531250000000;-55.5151000000000;-5.39625000000000
-0.0674406250000000;-55.4844000000000;-5.39525000000000
-0.0674281250000000;-55.4538000000000;-5.39425000000000
-0.0674156250000000;-55.4231000000000;-5.39325000000000
-0.0674031250000000;-55.3924000000000;-5.39225000000000
-0.0673906250000000;-55.3618000000000;-5.39125000000000
-0.0673781250000000;-55.3311000000000;-5.39025000000000
-0.0673656250000000;-55.3004000000000;-5.38925000000000
-0.0673531250000000;-55.2698000000000;-5.38825000000000
-0.0673406250000000;-55.2391000000000;-5.38725000000000
-0.0673281250000000;-55.2084000000000;-5.38625000000000
-0.0673156250000000;-55.1778000000000;-5.38525000000000
-0.0673031250000000;-55.1471000000000;-5.38425000000000
-0.0672906250000000;-55.1164000000000;-5.38325000000000
-0.0672781250000000;-55.0858000000000;-5.38225000000000
-0.0672656250000000;-55.0551000000000;-5.38125000000000
-0.0672531250000000;-55.0244000000000;-5.38025000000000
-0.0672406250000000;-54.9938000000000;-5.37925000000000
-0.0672281250000000;-54.9631000000000;-5.37825000000000
-0.0672156250000000;-54.9504000000000;-5.37725000000000
-0.0672031250000000;-54.9504000000000;-5.37625000000000
-0.0671906250000000;-54.9504000000000;-5.37525000000000
-0.0671781250000000;-54.9504000000000;-5.37425000000000
-0.0671656250000000;-54.9504000000000;-5.37325000000000
-0.0671531250000000;-54.9504000000000;-5.37225000000000
-0.0671406250000000;-54.9504000000000;-5.37125000000000
-0.0671281250000000;-54.9504000000000;-5.37025000000000
-0.0671156250000000;-54.9504000000000;-5.36925000000000
-0.0671031250000000;-54.9504000000000;-5.36825000000000
-0.0670906250000000;-54.9504000000000;-5.36725000000000
-0.0670781250000000;-54.9504000000000;-5.36625000000000
-0.0670656250000000;-54.9504000000000;-5.36525000000000
-0.0670531250000000;-54.9504000000000;-5.36425000000000
-0.0670406250000000;-54.9504000000000;-5.36325000000000
-0.0670281250000000;-54.9504000000000;-5.36225000000000
-0.0670156250000000;-54.9504000000000;-5.36125000000000
-0.0670031250000000;-54.9504000000000;-5.36025000000000
-0.0669906250000000;-54.9504000000000;-5.35925000000000
-0.0669781250000000;-54.9504000000000;-5.35825000000000
-0.0669656250000000;-54.9504000000000;-5.35725000000000
-0.0669531250000000;-54.9504000000000;-5.35625000000000
-0.0669406250000000;-54.9504000000000;-5.35525000000000
-0.0669281250000000;-54.9504000000000;-5.35425000000000
-0.0669156250000000;-54.9504000000000;-5.35325000000000
-0.0669031250000000;-54.9504000000000;-5.35225000000000
-0.0668906250000000;-54.9504000000000;-5.35125000000000
-0.0668781250000000;-54.9504000000000;-5.35025000000000
-0.0668656250000000;-54.9504000000000;-5.34925000000000
-0.0668531250000000;-54.9504000000000;-5.34825000000000
-0.0668406250000000;-54.9504000000000;-5.34725000000000
-0.0668281250000000;-54.9504000000000;-5.34625000000000
-0.0668156250000000;-54.9504000000000;-5.34525000000000
-0.0668031250000000;-54.9504000000000;-5.34425000000000
-0.0667906250000000;-54.9504000000000;-5.34325000000000
-0.0667781250000000;-54.9504000000000;-5.34225000000000
-0.0667656250000000;-54.9504000000000;-5.34125000000000
-0.0667531250000000;-54.9504000000000;-5.34025000000000
-0.0667406250000000;-54.9504000000000;-5.33925000000000
-0.0667281250000000;-54.9504000000000;-5.33825000000000
-0.0667156250000000;-54.9504000000000;-5.33725000000000
-0.0667031250000000;-54.9504000000000;-5.33625000000000
-0.0666906250000000;-54.9504000000000;-5.33525000000000
-0.0666781250000000;-54.9504000000000;-5.33425000000000
-0.0666656250000000;-54.9504000000000;-5.33325000000000
-0.0666531250000000;-54.9504000000000;-5.33225000000000
-0.0666406250000000;-54.9504000000000;-5.33125000000000
-0.0666281250000000;-54.9504000000000;-5.33025000000000
-0.0666156250000000;-54.9504000000000;-5.32925000000000
-0.0666031250000000;-54.9504000000000;-5.32825000000000
-0.0665906250000000;-54.9504000000000;-5.32725000000000
-0.0665781250000000;-54.9504000000000;-5.32625000000000
-0.0665656250000000;-54.9504000000000;-5.32525000000000
-0.0665531250000000;-54.9504000000000;-5.32425000000000
-0.0665406250000000;-54.9504000000000;-5.32325000000000
-0.0665281250000000;-54.9504000000000;-5.32225000000000
-0.0665156250000000;-54.9504000000000;-5.32125000000000
-0.0665031250000000;-54.9504000000000;-5.32025000000000
-0.0664906250000000;-54.9504000000000;-5.31925000000000
-0.0664781250000000;-54.9504000000000;-5.31825000000000
-0.0664656250000000;-54.9504000000000;-5.31725000000000
-0.0664531250000000;-54.9504000000000;-5.31625000000000
-0.0664406250000000;-54.9504000000000;-5.31525000000000
-0.0664281250000000;-54.9504000000000;-5.31425000000000
-0.0664156250000000;-54.9504000000000;-5.31325000000000
-0.0664031250000000;-54.9504000000000;-5.31225000000000
-0.0663906250000000;-54.9504000000000;-5.31125000000000
-0.0663781250000000;-54.9504000000000;-5.31025000000000
-0.0663656250000000;-54.9504000000000;-5.30925000000000
-0.0663531250000000;-54.9504000000000;-5.30825000000000
-0.0663406250000000;-54.9504000000000;-5.30725000000000
-0.0663281250000000;-54.9504000000000;-5.30625000000000
-0.0663156250000000;-54.9504000000000;-5.30525000000000
-0.0663031250000000;-54.9504000000000;-5.30425000000000
-0.0662906250000000;-54.9504000000000;-5.30325000000000
-0.0662781250000000;-54.9504000000000;-5.30225000000000
-0.0662656250000000;-54.9504000000000;-5.30125000000000
-0.0662531250000000;-54.9504000000000;-5.30025000000000
-0.0662406250000000;-54.9504000000000;-5.29925000000000
-0.0662281250000000;-54.9504000000000;-5.29825000000000
-0.0662156250000000;-54.9504000000000;-5.29725000000000
-0.0662031250000000;-54.9504000000000;-5.29625000000000
-0.0661906250000000;-54.9504000000000;-5.29525000000000
-0.0661781250000000;-54.9504000000000;-5.29425000000000
-0.0661656250000000;-54.9504000000000;-5.29325000000000
-0.0661531250000000;-54.9504000000000;-5.29225000000000
-0.0661406250000000;-54.9504000000000;-5.29125000000000
-0.0661281250000000;-54.9504000000000;-5.29025000000000
-0.0661156250000000;-54.9504000000000;-5.28925000000000
-0.0661031250000000;-54.9504000000000;-5.28825000000000
-0.0660906250000000;-54.9504000000000;-5.28725000000000
-0.0660781250000000;-54.9504000000000;-5.28625000000000
-0.0660656250000000;-54.9504000000000;-5.28525000000000
-0.0660531250000000;-54.9504000000000;-5.28425000000000
-0.0660406250000000;-54.9504000000000;-5.28325000000000
-0.0660281250000000;-54.9504000000000;-5.28225000000000
-0.0660156250000000;-54.9504000000000;-5.28125000000000
-0.0660031250000000;-54.9504000000000;-5.28025000000000
-0.0659906250000000;-54.9504000000000;-5.27925000000000
-0.0659781250000000;-54.9504000000000;-5.27825000000000
-0.0659656250000000;-54.9504000000000;-5.27725000000000
-0.0659531250000000;-54.9504000000000;-5.27625000000000
-0.0659406250000000;-54.9504000000000;-5.27525000000000
-0.0659281250000000;-54.9504000000000;-5.27425000000000
-0.0659156250000000;-54.9504000000000;-5.27325000000000
-0.0659031250000000;-54.9504000000000;-5.27225000000000
-0.0658906250000000;-54.9504000000000;-5.27125000000000
-0.0658781250000000;-54.9504000000000;-5.27025000000000
-0.0658656250000000;-54.9504000000000;-5.26925000000000
-0.0658531250000000;-54.9504000000000;-5.26825000000000
-0.0658406250000000;-54.9504000000000;-5.26725000000000
-0.0658281250000000;-54.9504000000000;-5.26625000000000
-0.0658156250000000;-54.9504000000000;-5.26525000000000
-0.0658031250000000;-54.9504000000000;-5.26425000000000
-0.0657906250000000;-54.9504000000000;-5.26325000000000
-0.0657781250000000;-54.9504000000000;-5.26225000000000
